#time    potential    pressure    kinect   square_kin
0.0    -2.537    -15.202    1350.0    1.8225e6
0.01    -2.542    -15.233    1350.0    1.8225e6
0.02    -2.558    -15.328    1350.01    1.822528347e6
0.03    -2.585    -15.487    1350.032    1.822585485e6
0.04    -2.622    -15.713    1350.064    1.822672337e6
0.05    -2.672    -16.009    1350.108    1.822790331e6
0.06    -2.735    -16.382    1350.163    1.82294145e6
0.07    -2.811    -16.836    1350.233    1.823128291e6
0.08    -2.902    -17.381    1350.316    1.823354152e6
0.09    -3.011    -18.025    1350.416    1.823623146e6
0.1    -3.138    -18.781    1350.533    1.82394034e6
0.11    -3.287    -19.664    1350.671    1.824311945e6
0.12    -3.46    -20.691    1350.831    1.824745553e6
0.13    -3.662    -21.883    1351.018    1.825250444e6
0.14    -3.897    -23.266    1351.236    1.825837984e6
0.15    -4.17    -24.872    1351.489    1.826522131e6
0.16    -4.49    -26.737    1351.784    1.827320081e6
0.17    -4.864    -28.904    1352.129    1.828253064e6
0.18    -5.303    -31.423    1352.534    1.829347276e6
0.19    -5.82    -34.349    1353.01    1.830634858e6
0.2    -6.431    -37.729    1353.571    1.832154631e6
0.21    -7.154    -41.59    1354.235    1.833951852e6
0.22    -8.004    -45.886    1355.019    1.836075191e6
0.23    -8.993    -50.401    1355.938    1.838566836e6
0.24    -10.11    -54.529    1356.995    1.84143665e6
0.25    -11.29    -56.847    1358.161    1.844602442e6
0.26    -12.359    -54.454    1359.327    1.847771227e6
0.27    -13.007    -42.794    1360.251    1.850283052e6
0.28    -13.052    -19.447    1360.611    1.851261484e6
0.29    -13.344    4.192    1360.587    1.851198024e6
0.3    -15.526    7.44    1361.718    1.854276265e6
0.31    -18.258    11.014    1364.739    1.862512744e6
0.32    -16.331    87.286    1366.145    1.866351707e6
0.33    -4.641    303.685    1360.249    1.850276258e6
0.34    15.588    637.453    1345.01    1.809050884e6
0.35    49.819    1136.033    1321.27    1.745754357e6
0.36    29.741    897.377    1300.832    1.692165066e6
0.37    -9.346    392.654    1345.091    1.809270955e6
0.38    -11.717    373.178    1361.93    1.854854029e6
0.39    -4.787    488.652    1355.433    1.837198326e6
0.4    -6.086    502.089    1353.08    1.830824603e6
0.41    -2.533    577.45    1353.799    1.832770667e6
0.42    5.017    698.221    1346.349    1.812656811e6
0.43    -1.355    626.104    1344.858    1.808643458e6
0.44    -12.389    481.738    1355.246    1.836692188e6
0.45    -21.31    360.918    1364.93    1.863032695e6
0.46    -26.525    290.382    1372.239    1.883039901e6
0.47    -30.705    238.481    1375.856    1.892980697e6
0.48    -34.379    201.459    1380.993    1.90714226e6
0.49    -27.131    314.905    1380.035    1.904496061e6
0.5    -15.097    492.061    1368.421    1.872577291e6
0.51    -14.497    512.822    1361.37    1.853328827e6
0.52    -20.946    431.501    1365.617    1.864910871e6
0.53    -28.428    331.659    1372.243    1.883051694e6
0.54    -34.93    246.84    1379.795    1.903834889e6
0.55    -35.385    247.558    1383.243    1.913360465e6
0.56    -31.709    309.133    1381.057    1.907318138e6
0.57    -27.478    381.302    1376.781    1.895524606e6
0.58    -24.816    432.164    1373.147    1.885533919e6
0.59    -25.049    442.27    1371.921    1.882167552e6
0.6    -26.206    437.585    1373.177    1.885616297e6
0.61    -25.121    460.022    1373.426    1.886298349e6
0.62    -24.207    477.699    1371.807    1.881854955e6
0.63    -25.881    458.723    1372.434    1.883575375e6
0.64    -26.103    456.045    1373.921    1.887657818e6
0.65    -24.679    471.839    1372.825    1.884649762e6
0.66    -26.403    442.575    1372.429    1.883560851e6
0.67    -32.195    357.606    1376.563    1.894924722e6
0.68    -36.284    296.317    1382.516    1.911349753e6
0.69    -35.089    307.912    1383.73    1.914709397e6
0.7    -36.769    287.48    1382.783    1.912089513e6
0.71    -37.428    288.319    1386.37    1.922022921e6
0.72    -21.566    508.918    1379.968    1.904311398e6
0.73    -11.738    643.253    1361.292    1.853116245e6
0.74    -30.099    397.409    1368.667    1.87325055e6
0.75    -42.705    221.406    1385.884    1.920673295e6
0.76    -43.704    204.37    1392.043    1.937784301e6
0.77    -38.563    275.13    1388.781    1.928713793e6
0.78    -39.94    264.614    1385.65    1.92002475e6
0.79    -45.12    207.431    1390.236    1.932756362e6
0.8    -46.244    209.856    1393.742    1.942516913e6
0.81    -39.824    319.084    1391.676    1.936763227e6
0.82    -24.582    545.043    1380.79    1.906581781e6
0.83    -13.022    711.929    1365.222    1.863829924e6
0.84    -16.35    664.292    1361.013    1.852357501e6
0.85    -28.155    487.891    1369.812    1.876386027e6
0.86    -36.803    344.817    1381.09    1.907409538e6
0.87    -39.015    286.252    1385.953    1.920864725e6
0.88    -41.857    224.003    1387.528    1.92523321e6
0.89    -44.544    170.677    1391.048    1.935013825e6
0.9    -43.114    180.417    1391.574    1.936478091e6
0.91    -39.097    234.138    1388.66    1.92837769e6
0.92    -31.83    338.162    1383.59    1.914321738e6
0.93    -21.427    484.698    1374.42    1.889030087e6
0.94    -17.418    542.424    1366.148    1.866360604e6
0.95    -21.316    488.365    1366.785    1.868100384e6
0.96    -26.635    410.055    1371.943    1.882227823e6
0.97    -28.641    373.436    1375.987    1.893339346e6
0.98    -29.627    350.065    1376.319    1.894253992e6
0.99    -36.632    250.998    1380.169    1.904865786e6
1.0    -41.646    187.162    1387.742    1.925826601e6
1.01    -32.561    321.275    1387.536    1.925256297e6
1.02    -13.977    586.393    1370.799    1.87908901e6
1.03    -21.263    517.822    1366.364    1.866950595e6
1.04    -22.968    520.181    1371.55    1.881149974e6
1.05    -19.991    586.775    1370.164    1.877350624e6
1.06    -13.237    704.678    1365.915    1.86572433e6
1.07    0.16    904.87    1356.459    1.839980687e6
1.08    12.353    1075.561    1343.925    1.806134266e6
1.09    10.887    1047.67    1334.785    1.781649707e6
1.1    -4.824    817.194    1349.634    1.821511916e6
1.11    -14.183    656.598    1357.363    1.84243374e6
1.12    -33.795    360.979    1374.388    1.888942464e6
1.13    -42.385    214.754    1387.374    1.924805872e6
1.14    -44.553    164.517    1391.845    1.937233002e6
1.15    -42.995    174.051    1391.736    1.936928459e6
1.16    -40.216    207.538    1389.194    1.929860645e6
1.17    -38.081    237.729    1386.653    1.922805986e6
1.18    -35.754    273.971    1384.811    1.917700842e6
1.19    -29.942    357.97    1381.429    1.908346877e6
1.2    -16.956    532.861    1372.885    1.884813081e6
1.21    -1.964    718.782    1357.432    1.84262076e6
1.22    -15.74    509.718    1353.776    1.832710301e6
1.23    -36.94    192.972    1377.057    1.896286243e6
1.24    -38.447    138.415    1388.508    1.927953533e6
1.25    -27.652    251.202    1381.32    1.908043655e6
1.26    -38.358    88.358    1379.529    1.903100733e6
1.27    -47.044    -44.635    1391.986    1.937625754e6
1.28    -46.815    -51.233    1395.051    1.946167713e6
1.29    -42.567    4.112    1392.291    1.93847384e6
1.3    -38.071    66.653    1387.391    1.924854305e6
1.31    -37.262    80.446    1384.379    1.916505719e6
1.32    -40.384    42.123    1385.915    1.920759235e6
1.33    -42.877    15.181    1389.399    1.930428755e6
1.34    -40.938    53.649    1390.028    1.932178433e6
1.35    -32.088    189.74    1385.206    1.918794493e6
1.36    -16.238    415.779    1372.64    1.884141132e6
1.37    -13.027    464.843    1359.72    1.848839201e6
1.38    -25.671    292.897    1367.477    1.869994406e6
1.39    -32.922    184.13    1378.105    1.899173029e6
1.4    -33.702    159.905    1381.443    1.908385555e6
1.41    -33.154    153.015    1380.667    1.906241699e6
1.42    -37.0    87.733    1381.928    1.909725373e6
1.43    -42.917    -3.726    1387.47    1.925074061e6
1.44    -46.731    -62.364    1392.501    1.939059588e6
1.45    -47.424    -70.968    1394.811    1.945498146e6
1.46    -43.53    -9.589    1393.654    1.942270895e6
1.47    -33.993    131.042    1386.979    1.923711831e6
1.48    -31.588    178.435    1378.768    1.901002443e6
1.49    -37.584    114.973    1382.837    1.912239189e6
1.5    -37.877    128.227    1386.246    1.921678456e6
1.51    -33.324    209.598    1383.705    1.914638406e6
1.52    -28.713    294.649    1378.561    1.900431017e6
1.53    -23.532    387.272    1375.299    1.891446299e6
1.54    -8.842    595.178    1365.813    1.865445804e6
1.55    -13.663    533.971    1356.493    1.840073483e6
1.56    -27.916    336.446    1370.381    1.877943814e6
1.57    -34.817    231.976    1379.784    1.90380286e6
1.58    -38.512    173.806    1384.601    1.917119541e6
1.59    -39.352    158.405    1386.712    1.922969491e6
1.6    -39.199    160.737    1386.612    1.922692583e6
1.61    -40.199    152.138    1387.004    1.923779438e6
1.62    -40.065    162.491    1387.935    1.926362848e6
1.63    -37.327    210.65    1386.348    1.921961659e6
1.64    -34.932    256.983    1383.448    1.913929028e6
1.65    -33.077    297.561    1381.665    1.908999279e6
1.66    -29.448    361.415    1379.236    1.902291372e6
1.67    -23.905    447.647    1374.548    1.889381574e6
1.68    -21.023    492.356    1369.556    1.875682466e6
1.69    -24.912    440.152    1370.14    1.877284154e6
1.7    -30.374    361.132    1375.578    1.892215483e6
1.71    -33.233    314.201    1379.749    1.903707733e6
1.72    -34.684    286.772    1381.51    1.908568764e6
1.73    -36.973    251.63    1383.227    1.913317175e6
1.74    -38.975    226.446    1385.992    1.92097287e6
1.75    -32.622    317.062    1385.538    1.919716556e6
1.76    -19.792    491.638    1373.865    1.887505549e6
1.77    -26.873    401.682    1370.499    1.878267797e6
1.78    -32.527    324.835    1379.035    1.901736728e6
1.79    -31.801    331.246    1380.296    1.905217586e6
1.8    -31.987    327.415    1379.593    1.903277061e6
1.81    -28.145    375.618    1379.225    1.902262324e6
1.82    -20.614    465.46    1372.274    1.883136234e6
1.83    -29.997    325.335    1370.977    1.879577974e6
1.84    -45.976    94.591    1386.998    1.923762518e6
1.85    -52.833    -10.481    1397.777    1.953780107e6
1.86    -53.887    -25.685    1401.115    1.963122351e6
1.87    -50.378    33.291    1400.03    1.960085219e6
1.88    -42.482    160.675    1394.275    1.944001456e6
1.89    -35.981    275.982    1386.327    1.92190343e6
1.9    -32.739    351.063    1382.125    1.910269924e6
1.91    -28.303    442.628    1378.897    1.901357377e6
1.92    -19.5    589.916    1372.684    1.88426195e6
1.93    -9.621    743.97    1362.678    1.856891999e6
1.94    -11.473    733.924    1357.869    1.843807757e6
1.95    -12.024    726.383    1361.609    1.853979309e6
1.96    -9.499    742.249    1358.4    1.845251161e6
1.97    -18.742    588.81    1361.617    1.854001449e6
1.98    -31.707    376.286    1373.134    1.885495669e6
1.99    -43.758    176.256    1386.033    1.921088241e6
2.0    -49.615    65.772    1394.85    1.945606137e6
2.01    -50.784    28.725    1397.733    1.953656605e6
2.02    -50.306    25.151    1397.727    1.953639645e6
2.03    -48.996    43.582    1396.997    1.951601409e6
2.04    -43.264    129.835    1394.554    1.944780757e6
2.05    -27.433    350.93    1384.592    1.917094391e6
2.06    -22.715    421.537    1370.123    1.877236489e6
2.07    -29.418    333.176    1375.085    1.890858363e6
2.08    -32.493    284.497    1378.617    1.900585969e6
2.09    -38.548    194.739    1382.742    1.911976214e6
2.1    -44.66    106.207    1389.173    1.929801098e6
2.11    -48.921    49.429    1394.301    1.944076092e6
2.12    -49.593    51.72    1397.257    1.952327361e6
2.13    -41.181    184.828    1394.6    1.944907873e6
2.14    -22.559    453.084    1380.452    1.905648954e6
2.15    -15.073    563.646    1365.108    1.863519616e6
2.16    -23.76    443.827    1366.098    1.866224871e6
2.17    -37.84    241.845    1379.438    1.902850304e6
2.18    -46.472    110.685    1390.269    1.932848973e6
2.19    -52.307    24.111    1396.92    1.951385643e6
2.2    -55.527    -16.597    1401.487    1.964166911e6
2.21    -55.246    1.783    1402.963    1.968304649e6
2.22    -51.25    81.431    1400.912    1.962555475e6
2.23    -43.893    214.006    1395.183    1.946534596e6
2.24    -37.449    338.199    1387.566    1.925339819e6
2.25    -35.328    405.551    1383.652    1.914492733e6
2.26    -32.451    480.435    1381.961    1.909815561e6
2.27    -27.69    576.457    1377.831    1.898419133e6
2.28    -24.453    648.627    1373.787    1.88729078e6
2.29    -15.44    791.182    1370.398    1.877990956e6
2.3    -1.18    991.926    1355.763    1.838092345e6
2.31    -13.662    838.696    1361.306    1.853152765e6
2.32    -7.332    912.993    1360.691    1.851479911e6
2.33    -30.207    597.601    1369.011    1.874192075e6
2.34    -43.532    401.297    1387.819    1.926040343e6
2.35    -48.579    320.167    1395.367    1.947048955e6
2.36    -51.055    283.442    1398.583    1.95603483e6
2.37    -50.402    299.358    1399.962    1.959892401e6
2.38    -42.852    415.616    1396.302    1.949660505e6
2.39    -29.446    611.648    1385.404    1.919344297e6
2.4    -18.758    764.154    1372.163    1.882831022e6
2.41    -20.148    743.982    1367.13    1.869044388e6
2.42    -25.27    662.0    1372.599    1.884027814e6
2.43    -24.829    645.562    1374.991    1.890601504e6
2.44    -26.226    602.606    1373.831    1.88741032e6
2.45    -34.515    473.322    1379.858    1.904007936e6
2.46    -33.283    478.331    1385.336    1.919154795e6
2.47    -10.336    773.1    1375.123    1.890962775e6
2.48    5.815    968.66    1348.003    1.817112653e6
2.49    -10.94    715.573    1354.459    1.834558437e6
2.5    -28.086    444.102    1369.841    1.876465725e6
2.51    -39.694    249.349    1385.286    1.919018167e6
2.52    -35.11    277.363    1389.822    1.931606005e6
2.53    -24.338    391.359    1378.216    1.899480125e6
2.54    -35.616    218.548    1379.679    1.903514757e6
2.55    -44.843    73.623    1390.774    1.934251112e6
2.56    -48.062    15.566    1396.149    1.949232048e6
2.57    -49.783    -12.406    1397.796    1.953834262e6
2.58    -51.967    -35.471    1399.823    1.959504713e6
2.59    -51.977    -17.957    1401.421    1.963980454e6
2.6    -46.206    87.264    1399.128    1.957558988e6
2.61    -34.53    276.758    1390.16    1.932544426e6
2.62    -26.283    420.54    1379.021    1.901697686e6
2.63    -24.781    469.423    1375.062    1.890795485e6
2.64    -20.63    542.502    1373.095    1.885389609e6
2.65    -21.773    534.61    1369.1    1.874434497e6
2.66    -35.367    355.886    1377.741    1.898170474e6
2.67    -45.027    229.464    1390.905    1.934616153e6
2.68    -43.274    261.863    1395.102    1.946309649e6
2.69    -32.633    418.23    1388.022    1.92660621e6
2.7    -27.553    502.968    1378.503    1.900270548e6
2.71    -27.429    519.32    1377.777    1.898270281e6
2.72    -28.225    522.001    1377.446    1.897358392e6
2.73    -26.039    566.194    1378.675    1.900745545e6
2.74    -6.487    834.627    1370.105    1.877186827e6
2.75    9.485    1036.247    1344.895    1.80874314e6
2.76    -21.827    599.207    1359.108    1.847174605e6
2.77    -38.607    338.714    1383.444    1.913917032e6
2.78    -44.229    229.818    1392.409    1.938803987e6
2.79    -47.654    159.695    1396.089    1.949064847e6
2.8    -49.275    123.322    1399.03    1.95728379e6
2.81    -45.702    163.567    1398.285    1.955201659e6
2.82    -40.376    231.563    1392.825    1.939960353e6
2.83    -40.251    232.841    1389.882    1.93177087e6
2.84    -42.095    208.653    1391.303    1.935723105e6
2.85    -43.755    189.806    1393.069    1.940641776e6
2.86    -42.586    213.543    1394.009    1.943261375e6
2.87    -34.503    332.109    1389.846    1.931672001e6
2.88    -24.357    475.502    1379.49    1.902991365e6
2.89    -26.327    452.794    1374.304    1.888712738e6
2.9    -33.656    351.66    1380.846    1.906736754e6
2.91    -37.458    293.024    1386.159    1.921436046e6
2.92    -39.636    256.048    1388.682    1.92843828e6
2.93    -42.245    215.742    1390.903    1.934609844e6
2.94    -44.413    185.347    1393.625    1.942190721e6
2.95    -43.575    199.482    1394.539    1.944738785e6
2.96    -41.553    233.729    1392.482    1.939007216e6
2.97    -43.546    220.754    1392.38    1.938722547e6
2.98    -43.065    247.969    1394.669    1.945101455e6
2.99    -30.021    447.988    1389.585    1.930947777e6
3.0    3.043    901.522    1368.734    1.8734314e6
3.01    -21.904    588.598    1354.431    1.834483227e6
3.02    -40.014    358.274    1384.405    1.916576824e6
3.03    -30.478    501.246    1386.578    1.922599933e6
3.04    -14.949    731.383    1370.097    1.877166111e6
3.05    -15.677    749.382    1365.509    1.864614113e6
3.06    -13.949    792.266    1365.252    1.863914221e6
3.07    -9.82    857.516    1360.669    1.85141895e6
3.08    -15.038    790.682    1361.938    1.854874448e6
3.09    -16.977    752.358    1365.445    1.864440251e6
3.1    -26.166    607.863    1369.845    1.876475853e6
3.11    -34.779    466.698    1379.808    1.903870924e6
3.12    -38.03    399.15    1385.15    1.918641707e6
3.13    -39.909    356.311    1387.089    1.924014951e6
3.14    -40.059    342.791    1388.192    1.927077842e6
3.15    -37.945    364.755    1387.115    1.924088022e6
3.16    -31.929    439.977    1383.575    1.914280917e6
3.17    -25.457    516.245    1375.999    1.893374104e6
3.18    -32.216    411.561    1375.72    1.892604871e6
3.19    -40.536    279.986    1384.873    1.917873241e6
3.2    -44.196    209.256    1390.434    1.933307361e6
3.21    -45.486    173.4    1392.431    1.938863255e6
3.22    -46.604    145.847    1393.473    1.941768084e6
3.23    -45.976    150.128    1394.461    1.944522212e6
3.24    -35.431    293.338    1390.834    1.934420352e6
3.25    -13.033    590.271    1373.912    1.887633574e6
3.26    -22.218    469.594    1362.445    1.856255616e6
3.27    -25.511    416.866    1379.278    1.902407219e6
3.28    -26.399    392.1    1369.779    1.876295115e6
3.29    -45.303    138.881    1389.097    1.929591532e6
3.3    -36.983    252.588    1392.876    1.940104376e6
3.31    -9.774    616.78    1373.984    1.887830878e6
3.32    -17.151    521.913    1358.455    1.845401165e6
3.33    -31.724    320.897    1374.094    1.888133981e6
3.34    -37.813    230.822    1383.254    1.913392468e6
3.35    -39.231    208.824    1386.177    1.921485416e6
3.36    -38.671    221.704    1386.625    1.922729025e6
3.37    -30.041    348.993    1384.137    1.915836443e6
3.38    1.153    765.511    1367.056    1.868841812e6
3.39    -6.071    664.361    1342.199    1.801498936e6
3.4    -37.408    232.761    1373.076    1.885338416e6
3.41    -47.851    76.548    1391.532    1.936361803e6
3.42    -46.619    88.255    1394.912    1.945778734e6
3.43    -38.591    199.727    1389.801    1.931546338e6
3.44    -32.762    284.255    1381.268    1.907901637e6
3.45    -37.611    226.1    1380.972    1.907083141e6
3.46    -43.979    146.303    1387.877    1.926201804e6
3.47    -46.378    121.502    1392.107    1.937962235e6
3.48    -46.142    136.526    1392.871    1.940089872e6
3.49    -44.589    173.286    1391.88    1.937328643e6
3.5    -42.171    223.747    1389.878    1.931762121e6
3.51    -39.308    279.813    1387.211    1.92435546e6
3.52    -36.556    331.666    1384.38    1.916509034e6
3.53    -35.17    361.337    1382.115    1.910242997e6
3.54    -36.012    358.588    1382.07    1.91011873e6
3.55    -33.99    392.457    1382.776    1.91206996e6
3.56    -22.82    543.153    1376.813    1.895613372e6
3.57    -19.4    585.513    1366.142    1.866343562e6
3.58    -26.659    479.211    1370.943    1.87948548e6
3.59    -30.396    412.325    1375.825    1.892895624e6
3.6    -33.208    354.765    1378.625    1.900605897e6
